Frecuencia [Hz],X [V],Ruido X [V],Y [V],Ruido Y [V],Tiempo de integración [s],Escala [V]
2000.0,0.008182204666666667,2.759309978156928e-06,0.024350983333333336,9.387050773390512e-06,0.03,0.05
1996.052104208417,0.008147618,1.2185929153467788e-05,0.024315140000000002,8.964619344958287e-06,0.03,0.05
1992.1042084168337,0.008104257,1.2102403934756068e-05,0.024287613333333336,8.39685390819459e-06,0.03,0.05
1988.1563126252506,0.008062741666666668,1.201280569041042e-05,0.024258246666666664,8.07579648634675e-06,0.03,0.05
1984.2084168336673,0.008020904666666667,1.1651860719311184e-05,0.024229290000000004,7.1550145585691364e-06,0.03,0.05
1980.2605210420843,0.007978625333333333,1.1654016684769538e-05,0.024200419999999997,8.114940952753168e-06,0.03,0.05
1976.312625250501,0.007935964666666665,1.2135626266859714e-05,0.024172063333333334,7.99647769680879e-06,0.03,0.05
1972.364729458918,0.007893049666666664,1.110379769368213e-05,0.02414352333333333,9.02606164885296e-06,0.03,0.05
1968.4168336673347,0.007851406000000002,1.1699243451323302e-05,0.02411479,7.773088189388338e-06,0.03,0.05
1964.4689378757516,0.007809616333333332,1.1379333455386895e-05,0.024085230000000003,8.118462498117414e-06,0.03,0.05
1960.5210420841684,0.007766563333333335,1.1275875230873388e-05,0.024057453333333333,8.420282391675332e-06,0.03,0.05
1956.5731462925853,0.0077234576666666685,1.2556980444712391e-05,0.02402675333333333,8.057283799285466e-06,0.03,0.05
1952.625250501002,0.007681558666666667,1.1157101694536157e-05,0.023997706666666667,8.383433399005256e-06,0.03,0.05
1948.677354709419,0.007639595333333332,1.2047243040998637e-05,0.023968923333333333,8.094923649355131e-06,0.03,0.05
1944.7294589178357,0.007597953333333334,1.0886830372314847e-05,0.023938473333333335,7.89957523471245e-06,0.03,0.05
1940.7815631262526,0.007555482333333332,1.2456408975124192e-05,0.023909550000000005,8.769711131692492e-06,0.03,0.05
1936.8336673346694,0.0075143480000000006,1.177130250510387e-05,0.02387942333333333,8.264691296244064e-06,0.03,0.05
1932.8857715430863,0.007470606000000001,1.2389154558187869e-05,0.023850693333333332,8.337742833378268e-06,0.03,0.05
1928.937875751503,0.007427183,1.1331681296259617e-05,0.023821199999999994,8.55160803591949e-06,0.03,0.05
1924.98997995992,0.007386618333333333,1.2134646563547645e-05,0.023788496666666662,8.156326106498802e-06,0.03,0.05
1921.0420841683367,0.007343069,1.1333567355427033e-05,0.023759819999999997,8.676919576286076e-06,0.03,0.05
1917.0941883767537,0.007301804333333333,1.173441709483499e-05,0.023729433333333338,8.817608645331094e-06,0.03,0.05
1913.1462925851704,0.007258634333333334,1.1743862136830702e-05,0.023699049999999996,9.40917105806905e-06,0.03,0.05
1909.1983967935873,0.007217118999999999,1.1402845068958414e-05,0.02366778333333334,8.825458754208166e-06,0.03,0.05
1905.250501002004,0.007175158666666667,1.148689245280128e-05,0.02363708333333333,8.175617543783588e-06,0.03,0.05
1901.302605210421,0.0071321786666666675,1.1328453478839053e-05,0.023607183333333333,8.252800871353735e-06,0.03,0.05
1897.3547094188377,0.007090980333333333,1.1529228792749145e-05,0.02357646,9.698714691476886e-06,0.03,0.05
1893.4068136272547,0.007048319333333332,1.1646495304978647e-05,0.023546266666666666,8.75451629477947e-06,0.03,0.05
1889.4589178356714,0.007007373666666665,1.211177649599295e-05,0.023513536666666668,8.702317060543002e-06,0.03,0.05
1885.5110220440883,0.006965539999999999,1.153845021366969e-05,0.02348296666666667,8.806525358441637e-06,0.03,0.05
1881.563126252505,0.006923197333333332,1.0866802637186194e-05,0.02345198,9.417338619093248e-06,0.03,0.05
1877.615230460922,0.0068820619999999996,1.2093350349124362e-05,0.023419616666666667,9.228365089344062e-06,0.03,0.05
1873.6673346693387,0.006838765333333333,1.141874270175522e-05,0.02338739333333333,9.28704952548902e-06,0.03,0.05
1869.7194388777557,0.006796867666666667,1.1969585813868265e-05,0.02335599666666667,9.042104597689396e-06,0.03,0.05
1865.7715430861724,0.006753695333333334,1.1442333309057002e-05,0.023325366666666666,9.548205183290245e-06,0.03,0.05
1861.8236472945894,0.006712625666666666,1.028689252830445e-05,0.023293346666666662,9.595441047127033e-06,0.03,0.05
1857.875751503006,0.006671426666666665,1.2690158479003492e-05,0.023259276666666665,8.67293427214195e-06,0.03,0.05
1853.927855711423,0.0066300376666666655,1.1278175586306328e-05,0.02322718,8.44379061796306e-06,0.03,0.05
1849.9799599198398,0.006586677333333335,1.1849762004173493e-05,0.023195790000000004,8.978394437017173e-06,0.03,0.05
1846.0320641282565,0.006544716333333333,1.2053989238238018e-05,0.023164086666666663,9.238532832051429e-06,0.03,0.05
1842.0841683366734,0.006503388333333333,1.1406712375712074e-05,0.023130716666666662,9.195799161695034e-06,0.03,0.05
1838.1362725450902,0.0064621900000000005,1.2098906286657976e-05,0.023097733333333335,8.544250828611277e-06,0.03,0.05
1834.188376753507,0.0064204836666666674,1.1623197633277243e-05,0.023064676666666666,8.980114451138908e-06,0.03,0.05
1830.2404809619238,0.006378394666666666,1.1667563508386109e-05,0.023033243333333335,8.73318129638674e-06,0.03,0.05
1826.2925851703408,0.006336560666666668,1.1601186127097297e-05,0.022999623333333333,9.249637230123725e-06,0.03,0.05
1822.3446893787575,0.006294787666666666,1.190116428011246e-05,0.022967023333333336,9.169248727252551e-06,0.03,0.05
1818.3967935871744,0.006253654333333332,1.1338829358545948e-05,0.02293248,9.22927949517155e-06,0.03,0.05
1814.4488977955912,0.0062120733333333325,1.15953319151382e-05,0.02289973333333333,8.858454843945347e-06,0.03,0.05
1810.5010020040081,0.006169604,1.1147991328784942e-05,0.022867260000000004,9.743907498192354e-06,0.03,0.05
1806.5531062124248,0.006128657333333333,1.1467419335762629e-05,0.022833073333333332,9.114272080400078e-06,0.03,0.05
1802.6052104208418,0.006085743,1.120110534724143e-05,0.022800620000000004,1.0117193286677974e-05,0.03,0.05
1798.6573146292585,0.006044544333333333,1.1293798795012225e-05,0.022766036666666663,9.644635238768157e-06,0.03,0.05
1794.7094188376755,0.006003855000000001,1.2221582207990494e-05,0.02273198,9.637752158395937e-06,0.03,0.05
1790.7615230460922,0.005962463333333333,1.12906100612658e-05,0.022698000000000003,9.803332766632647e-06,0.03,0.05
1786.8136272545091,0.005921393333333332,1.1776136982144095e-05,0.02266431,9.423352199014154e-06,0.03,0.05
1782.8657314629259,0.005879241666666666,1.1215195965989868e-05,0.022629296666666666,1.0384619503006071e-05,0.03,0.05
1778.9178356713428,0.005838487333333335,1.2127409982716412e-05,0.02259296666666666,9.213227206334924e-06,0.03,0.05
1774.9699398797595,0.005795191666666668,1.2354784520806314e-05,0.02255826333333334,9.392460924710997e-06,0.03,0.05
1771.0220440881765,0.005755135,1.1637597332210097e-05,0.02252452333333333,9.681276890071185e-06,0.03,0.05
1767.0741482965932,0.005712347666666668,1.1844689860392763e-05,0.022489786666666668,9.588143140822331e-06,0.03,0.05
1763.1262525050101,0.005672676666666667,1.1584290895672306e-05,0.02245386666666666,9.494992832482498e-06,0.03,0.05
1759.1783567134269,0.0056300149999999995,1.1683975850140472e-05,0.022420763333333333,1.044603539892286e-05,0.03,0.05
1755.2304609218438,0.005588433333333332,1.1581060208614673e-05,0.022385633333333335,9.918546040401053e-06,0.03,0.05
1751.2825651302605,0.005547806666666667,1.1171091362182273e-05,0.0223503,1.0234549330576389e-05,0.03,0.05
1747.3346693386775,0.005505845666666668,1.2037459500335676e-05,0.022313640000000003,1.0184550390992583e-05,0.03,0.05
1743.3867735470942,0.005464457333333334,1.109894557554389e-05,0.022278763333333333,1.0151009254694414e-05,0.03,0.05
1739.4388777555112,0.0054228140000000015,1.130828327672543e-05,0.022242923333333338,1.016568355902476e-05,0.03,0.05
1735.4909819639279,0.0053830760000000005,1.1900647769484392e-05,0.02220603,1.0059991716365056e-05,0.03,0.05
1731.5430861723448,0.005341815333333333,1.1405971165237159e-05,0.02217182666666667,9.96848144013036e-06,0.03,0.05
1727.5951903807616,0.005300931666666667,1.1354108825540878e-05,0.02213580333333333,1.0213046666995093e-05,0.03,0.05
1723.6472945891785,0.005259353333333334,1.1117526503478943e-05,0.022100366666666663,1.0648359289372412e-05,0.03,0.05
1719.6993987975952,0.0052187269999999985,1.0837613252003427e-05,0.022063123333333334,1.057839569857159e-05,0.03,0.05
1715.7515030060122,0.005177463,1.1075202074905794e-05,0.022027476666666664,1.0043395286898246e-05,0.03,0.05
1711.803607214429,0.005136391333333334,1.105634470438685e-05,0.02199132666666667,9.728957920673225e-06,0.03,0.05
1707.8557114228458,0.005096148333333332,1.1274241462535577e-05,0.02195390666666666,1.036053194687542e-05,0.03,0.05
1703.9078156312626,0.0050546946666666665,1.1361968061133698e-05,0.021918023333333335,1.0050296291928775e-05,0.03,0.05
1699.9599198396795,0.0050155926666666665,1.2119722750771055e-05,0.021879890000000003,9.625291337581698e-06,0.03,0.05
1696.0120240480962,0.004974141,1.2299452928213266e-05,0.02184429,1.0017862380102009e-05,0.03,0.05
1692.0641282565132,0.004931861333333333,1.1539876005495992e-05,0.021806766666666668,9.992341511822018e-06,0.03,0.05
1688.11623246493,0.0048927599999999995,1.1266635404295804e-05,0.021769346666666668,9.976764115795817e-06,0.03,0.05
1684.1683366733469,0.004851180999999999,1.1917502352982163e-05,0.021733196666666666,1.0926404816874632e-05,0.03,0.05
1680.2204408817636,0.004811253000000001,1.0876939872960655e-05,0.02169539333333333,1.0188553490178638e-05,0.03,0.05
1676.2725450901805,0.004769671666666667,1.1885018604201749e-05,0.02165709,1.0003644335940569e-05,0.03,0.05
1672.3246492985973,0.004729747000000001,1.0537693343421894e-05,0.021620363333333333,1.0085120502777975e-05,0.03,0.05
1668.3767535070142,0.004688357666666668,1.165829280907905e-05,0.021582390000000003,1.0371349960347904e-05,0.03,0.05
1664.428857715431,0.004647729000000001,1.189117385570773e-05,0.021543876666666666,1.0737494534987743e-05,0.03,0.05
1660.4809619238479,0.004607230999999999,1.1441287908273222e-05,0.021506420000000005,1.1515566276422103e-05,0.03,0.05
1656.5330661322646,0.004567368000000001,1.1997572365552263e-05,0.021467769999999997,1.0395933499851224e-05,0.03,0.05
1652.5851703406815,0.004526422333333333,1.1398792241091015e-05,0.021429696666666668,1.1158449215230918e-05,0.03,0.05
1648.6372745490983,0.004485859333333334,1.1629791896485345e-05,0.02139236,1.1099777775553189e-05,0.03,0.05
1644.689378757515,0.004445931333333333,1.1208188296459342e-05,0.021352913333333334,1.0639697155255858e-05,0.03,0.05
1640.741482965932,0.004405624666666667,1.1244677773160884e-05,0.021314603333333335,1.0365567465840497e-05,0.03,0.05
1636.7935871743487,0.004365822333333333,1.1316792444072806e-05,0.021275723333333336,1.054904998355588e-05,0.03,0.05
1632.8456913827656,0.0043252606666666655,1.1048569721411434e-05,0.021237419999999996,1.099758761426049e-05,0.03,0.05
1628.8977955911823,0.004284826333333333,1.1775074092713296e-05,0.02119759,1.0418776319703018e-05,0.03,0.05
1624.9498997995993,0.0042448343333333334,1.0184922085557886e-05,0.021158519999999997,1.0882077007630573e-05,0.03,0.05
1621.002004008016,0.004205479333333333,1.1085885901551734e-05,0.021119706666666672,1.0593643796583766e-05,0.03,0.05
1617.054108216433,0.004165996333333334,1.1198352998940932e-05,0.021079876666666667,1.0919483606023672e-05,0.03,0.05
1613.1062124248497,0.0041257536666666665,1.1185502069891855e-05,0.021041190000000005,1.0827167989214492e-05,0.03,0.05
1609.1583166332666,0.004086841999999999,1.1384279043195153e-05,0.021000213333333337,1.0308951881199044e-05,0.03,0.05
1605.2104208416833,0.004045643666666666,1.0755168519781091e-05,0.020961770000000005,1.0822542831208232e-05,0.03,0.05
1601.2625250501003,0.004005145000000001,1.1798976721168125e-05,0.020921949999999995,1.1245287902049631e-05,0.03,0.05
1597.314629258517,0.0039664259999999995,1.0570268240052685e-05,0.020881690000000005,1.081909885341655e-05,0.03,0.05
1593.366733466934,0.003925099333333334,1.0919875742068625e-05,0.020841466666666662,1.1251735668578225e-05,0.03,0.05
1589.4188376753507,0.0038875736666666664,1.0832632638878102e-05,0.020801203333333334,1.0471373145655324e-05,0.03,0.05
1585.4709418837676,0.0038459293333333333,1.1268262786349189e-05,0.020762063333333337,1.152636060900783e-05,0.03,0.05
1581.5230460921844,0.0038082259999999996,1.0593025567167625e-05,0.02072141333333333,1.1106086419416757e-05,0.03,0.05
1577.5751503006013,0.0037665836666666663,1.0774924743227785e-05,0.020680756666666668,1.157395591643387e-05,0.03,0.05
1573.627254509018,0.0037273546666666667,1.0850220499551592e-05,0.020640356666666675,1.109527477001892e-05,0.03,0.05
1569.679358717435,0.003688383,1.0627049810115078e-05,0.020599290000000003,1.168932133758572e-05,0.03,0.05
1565.7314629258517,0.0036493453333333336,1.111249468941249e-05,0.020557776666666663,1.086065324411448e-05,0.03,0.05
1561.7835671342687,0.003608973666666667,1.0136876732450164e-05,0.020517650000000002,1.2120141638336274e-05,0.03,0.05
1557.8356713426854,0.003570570333333334,1.0913943522953603e-05,0.02047514,1.150227803524099e-05,0.03,0.05
1553.8877755511023,0.003531981,1.1051520061361158e-05,0.020433346666666668,1.1293943312924482e-05,0.03,0.05
1549.939879759519,0.003491288666666667,1.0113468159945014e-05,0.020394276666666666,1.224248567716363e-05,0.03,0.05
1545.991983967936,0.0034531433333333333,1.0626425655987233e-05,0.02035153,1.2147788550459434e-05,0.03,0.05
1542.0440881763527,0.0034144233333333334,1.0741876103466391e-05,0.02030962333333333,1.128381387455329e-05,0.03,0.05
1538.0961923847697,0.0033853046666666663,6.925495281125302e-06,0.020280000000000003,7.65475886839909e-06,0.1,0.05
1534.1482965931864,0.0033540876666666663,8.848024895735558e-06,0.020245233333333338,9.684707303556298e-06,0.1,0.05
1530.2004008016033,0.0033170209999999994,9.674960930153617e-06,0.020204843333333337,1.0360523903527166e-05,0.1,0.05
1526.25250501002,0.0032780486666666663,9.65610229624544e-06,0.020163850000000004,1.066626301319571e-05,0.1,0.05
1522.304609218437,0.0032404733333333334,9.497492066622412e-06,0.020121246666666665,1.0459978755024227e-05,0.1,0.05
1518.3567134268537,0.003201245,9.581768017090233e-06,0.02007908666666667,1.058850739664887e-05,0.1,0.05
1514.4088176352707,0.0031625263333333333,9.612568329478296e-06,0.02003695333333333,1.0636281722899788e-05,0.1,0.05
1510.4609218436874,0.003122312666666667,1.0541329117125344e-05,0.01999141333333333,1.2205237491430656e-05,0.1,0.02
1506.5130260521044,0.003084356333333333,9.114508391691939e-06,0.019950476666666668,1.0002922350770776e-05,0.1,0.02
1502.565130260521,0.003046114,9.650236128371802e-06,0.019909083333333338,1.0600537198127934e-05,0.1,0.02
1498.617234468938,0.0030085396666666665,9.220934328412114e-06,0.019865416666666663,1.0765750735034066e-05,0.1,0.02
1494.6693386773547,0.0029705203333333335,9.689228549729301e-06,0.01982246,1.0862093107070368e-05,0.1,0.02
1490.7214428857717,0.0029321819999999998,9.26791288982218e-06,0.019779166666666667,1.0763002472462041e-05,0.1,0.02
1486.7735470941884,0.002894162333333333,9.709404610422298e-06,0.01973578,1.0898330147320587e-05,0.1,0.02
1482.8256513026054,0.0028552203333333335,9.607459422529723e-06,0.019691903333333337,1.0747572852612742e-05,0.1,0.02
1478.877755511022,0.002817009666666667,9.489329264436403e-06,0.01964813,1.1041864274961428e-05,0.1,0.02
1474.929859719439,0.0027781,9.499605254956688e-06,0.01960414,1.0743574824051728e-05,0.1,0.02
1470.9819639278558,0.002740620333333333,9.27225807928617e-06,0.019560549999999996,1.092632143038061e-05,0.1,0.02
1467.0340681362727,0.0027032680000000004,9.462042908378756e-06,0.019516846666666667,1.0746743175906362e-05,0.1,0.02
1463.0861723446894,0.0026651210000000003,9.342915444335357e-06,0.01947281333333333,1.1211593206240453e-05,0.1,0.02
1459.1382765531064,0.002626942666666667,9.3235990666456e-06,0.01942846666666666,1.0956925765114185e-05,0.1,0.02
1455.190380761523,0.0025897493333333333,9.310695259873076e-06,0.019383579999999997,1.128991880691176e-05,0.1,0.02
1451.24248496994,0.0025524290000000006,9.342365992259832e-06,0.01933876666666667,1.09517832135025e-05,0.1,0.02
1447.2945891783568,0.002514123,9.639776328663772e-06,0.019294253333333337,1.1011258884533865e-05,0.1,0.02
1443.3466933867735,0.002476611666666666,8.993604425121009e-06,0.019249466666666666,1.1104153377102432e-05,0.1,0.02
1439.3987975951904,0.002439450666666667,9.524190930934158e-06,0.019204323333333335,1.1292879270682876e-05,0.1,0.02
1435.4509018036072,0.0024020983333333337,9.09962493122045e-06,0.019159409999999995,1.0938413961813483e-05,0.1,0.02
1431.5030060120241,0.0023645549999999995,9.238192373691594e-06,0.0191157,1.0902874238780398e-05,0.1,0.02
1427.5551102204408,0.0023277436666666665,9.231273470593806e-06,0.019069916666666666,1.1468655350805183e-05,0.1,0.02
1423.6072144288578,0.0022906773333333337,9.379464424416176e-06,0.019024113333333335,1.1301437470025392e-05,0.1,0.02
1419.6593186372745,0.0022533563333333334,9.499831045281256e-06,0.018978713333333334,1.1238823584146205e-05,0.1,0.02
1415.7114228456915,0.0022163223333333333,9.015627056518164e-06,0.018932526666666668,1.119636647409423e-05,0.1,0.02
1411.7635270541082,0.00217986,9.40173778263002e-06,0.01888713,1.1210178410712364e-05,0.1,0.02
1407.8156312625251,0.002142857333333333,9.017295209146111e-06,0.018841163333333334,1.1042568642404618e-05,0.1,0.02
1403.8677354709419,0.002105442333333333,9.40936614348823e-06,0.018796586666666667,1.1342684377557743e-05,0.1,0.02
1399.9198396793588,0.0020682156666666663,8.744445354369525e-06,0.01875091333333333,1.1393411351400741e-05,0.1,0.02
1395.9719438877755,0.002031722333333333,9.27801547865828e-06,0.018704533333333336,1.1619389924699901e-05,0.1,0.02
1392.0240480961925,0.0019949736666666665,9.211785380092702e-06,0.018657866666666672,1.1545802508078449e-05,0.1,0.02
1388.0761523046092,0.001958382666666667,9.053160381264048e-06,0.018611583333333334,1.1781173776646804e-05,0.1,0.02
1384.1282565130261,0.0019213116666666672,9.072545796093949e-06,0.018564909999999997,1.1468110858666233e-05,0.1,0.02
1380.1803607214429,0.0018858343333333337,8.931927631940523e-06,0.018517243333333332,1.1811990612179768e-05,0.1,0.02
1376.2324649298598,0.0018488003333333332,9.095777219249695e-06,0.018471163333333335,1.1482319258562183e-05,0.1,0.02
1372.2845691382765,0.0018129416666666665,8.966375367015503e-06,0.018423863333333332,1.2025818983429794e-05,0.1,0.02
1368.3366733466935,0.0017767976666666666,9.019533499885448e-06,0.01837666333333333,1.1590872366747332e-05,0.1,0.02
1364.3887775551102,0.0017408133333333333,8.965262343561883e-06,0.01832939,1.1865843136218079e-05,0.1,0.02
1360.4408817635272,0.0017051773333333332,8.980210440493887e-06,0.01828167666666667,1.1776408148875193e-05,0.1,0.02
1356.4929859719439,0.0016682059999999998,9.175588119207032e-06,0.018234086666666666,1.1878123682729835e-05,0.1,0.02
1352.5450901803608,0.0016323486666666664,8.694025815977814e-06,0.018186209999999994,1.178672558431714e-05,0.1,0.02
1348.5971943887776,0.0015966169999999996,8.977304402399055e-06,0.018139256666666666,1.1839867210216245e-05,0.1,0.02
1344.6492985971945,0.001560600333333333,8.609766734483689e-06,0.018092056666666672,1.1798832804797078e-05,0.1,0.02
1340.7014028056112,0.0015262046666666665,8.65174654172337e-06,0.01804389333333333,1.1857681991950028e-05,0.1,0.02
1336.7535070140282,0.0014905686666666668,8.800721839081657e-06,0.017995756666666664,1.200890456656602e-05,0.1,0.02
1332.805611222445,0.0014552826666666665,8.800375345530558e-06,0.017947446666666665,1.1848283513750907e-05,0.1,0.02
1328.8577154308618,0.0014193296666666665,9.040927490522688e-06,0.0178997,1.2189749792345827e-05,0.1,0.02
1324.9098196392786,0.0013849333333333335,8.623085423572127e-06,0.017850896666666668,1.2053892409600606e-05,0.1,0.02
1320.9619238476955,0.0013494246666666669,8.950592059870815e-06,0.017802549999999997,1.2145280290439286e-05,0.1,0.02
1317.0140280561122,0.0013139799999999997,8.524955522855623e-06,0.017754390000000002,1.197932524532692e-05,0.1,0.02
