Frecuencia [Hz],X [V],Ruido X [V],Y [V],Ruido Y [V],Tiempo de integración [s],Escala [V]
30.0,-0.01561845,0.0004381636374308,-0.0186596433333333,0.0005391733065124,3.0,0.02
33.947895791583164,-0.010330327,0.0003164961638329,-0.0122197766666666,0.0003816903838482,3.0,0.02
37.895791583166336,-0.0065960863333333,0.0002156378503182,-0.0077452763333333,0.0002568103614405,3.0,0.01
41.8436873747495,-0.004121301,0.00014483255963,-0.0048093779999999,0.0001710984470687,3.0,0.005
45.79158316633266,-0.002540619,8.803248023125704e-05,-0.0029463833333333,0.000103491284378,3.0,0.005
49.73947895791584,-0.0015450913333333,5.489855995277916e-05,-0.0017774803333333,6.437045287414266e-05,3.0,0.002
53.687374749499,-0.0009760434,4.411357369230777e-05,-0.0011105973333333,5.170769800415494e-05,1.0,0.002
57.63527054108216,-0.0005918838666666,2.738865151205676e-05,-0.0006599741,3.218874402991414e-05,1.0,0.001
61.58316633266533,-0.000364522,1.590637425478645e-05,-0.0003916173333333,1.8886379736613256e-05,1.0,0.0005
65.5310621242485,-0.0002361228666666,9.236780939026083e-06,-0.0002379996333333,1.1162478319451385e-05,1.0,0.0005
69.47895791583167,-0.0001579591666666,5.402258836717181e-06,-0.0001421362333333,6.749840070615665e-06,1.0,0.0002
73.42685370741484,-0.0001150450333333,2.982585282193212e-06,-8.706845333333333e-05,3.987566451419825e-06,1.0,0.0002
77.374749498998,-9.055941333333334e-05,1.608415111578959e-06,-5.238402333333333e-05,2.462000153490834e-06,1.0,0.0001
81.32264529058116,-7.865848333333334e-05,7.369279372653899e-07,-3.199561e-05,1.5005117594452018e-06,1.0,0.0001
85.27054108216433,-7.386826666666669e-05,2.164041270914721e-07,-1.9114696666666667e-05,9.58074331313715e-07,1.0,0.0001
89.21843687374749,-7.341054e-05,1.0352555433321808e-07,-1.0663582666666664e-05,6.47010832995004e-07,1.0,0.0001
93.16633266533066,-7.573487333333335e-05,3.102363034133101e-07,-4.839677333333332e-06,4.576183349614491e-07,1.0,0.0001
97.11422845691384,-7.982698666666667e-05,4.431420003665737e-07,-6.103304033333333e-07,3.4773922251076065e-07,1.0,0.0001
101.062124248497,-8.508647333333332e-05,5.312473372063977e-07,2.782309333333333e-06,2.918070532953048e-07,1.0,0.0001
105.01002004008016,-9.116651333333332e-05,5.968759428520764e-07,5.776712e-06,2.698670529155668e-07,1.0,0.0001
108.95791583166331,-9.781902e-05,6.410190924873714e-07,8.602995e-06,2.608137636673596e-07,1.0,0.0001
112.90581162324648,-0.0001052290333333,6.757601390697407e-07,1.1572046666666666e-05,2.691965722086536e-07,1.0,0.0002
116.85370741482966,-0.0001125841666666,7.019573625861392e-07,1.4514783333333334e-05,2.787096459081068e-07,1.0,0.0002
120.80160320641284,-0.0001202465666666,7.257866850681555e-07,1.761081e-05,2.959803387051242e-07,1.0,0.0002
124.749498997996,-0.0001281011,7.454786538415003e-07,2.087019e-05,3.133419733028652e-07,1.0,0.0002
128.69739478957916,-0.0001361752,7.642496276304832e-07,2.435432333333333e-05,3.350803830757962e-07,1.0,0.0002
132.64529058116233,-0.0001444826,7.810954956555167e-07,2.8065213333333336e-05,3.5573817313049466e-07,1.0,0.0002
136.5931863727455,-0.0001529628333333,8.006449518287668e-07,3.200271e-05,3.789148940065563e-07,1.0,0.0002
140.54108216432866,-0.0001616253666666,8.132709053910347e-07,3.624036e-05,4.039282664038256e-07,1.0,0.0002
144.48897795591182,-0.0001704354999999,8.267863387840926e-07,4.072510666666666e-05,4.266767440997407e-07,1.0,0.0002
148.436873747495,-0.0001792706333333,8.308150409219993e-07,4.540531666666667e-05,4.472961517707133e-07,1.0,0.0002
152.38476953907815,-0.0001883199999999,8.507995063468224e-07,5.017293666666667e-05,4.612793018575861e-07,1.0,0.0002
156.3326653306613,-0.0001998122,2.564870723187948e-06,5.671156666666667e-05,1.5140700583379734e-06,0.3,0.0005
160.2805611222445,-0.0002129613999999,1.6798689353637088e-06,6.474700333333333e-05,1.0322254874730078e-06,0.3,0.0005
164.22845691382767,-0.0002242008666666,1.5825838520877458e-06,7.178730666666667e-05,9.971048938245603e-07,0.3,0.0005
168.17635270541084,-0.0002346991666666,1.4904832121012148e-06,7.859813333333334e-05,9.792838432015284e-07,0.3,0.0005
172.124248496994,-0.0002448603666666,1.4634689037428231e-06,8.537715999999999e-05,9.87786841243258e-07,0.3,0.0005
176.07214428857716,-0.0002548027333333,1.4394604529321244e-06,9.228435333333332e-05,1.0152306095113995e-06,0.3,0.0005
180.02004008016033,-0.0002648282666666,1.4605195635648155e-06,9.941608333333331e-05,1.0530984044185464e-06,0.3,0.0005
183.9679358717435,-0.0002748100666666,1.4674914408230462e-06,0.0001068328666666,1.108915047342321e-06,0.3,0.0005
187.91583166332663,-0.0002848762666666,1.47410827131373e-06,0.0001145735333333,1.1414100850361468e-06,0.3,0.0005
191.86372745490985,-0.0002949772666666,1.4716846114421233e-06,0.0001225349333333,1.1704169893199986e-06,0.3,0.0005
195.81162324649296,-0.0003050712666666,1.469754195624411e-06,0.0001307149333333,1.1999697755452915e-06,0.3,0.0005
199.7595190380761,-0.0003152657333333,1.483231897655332e-06,0.0001390307333333,1.2158577201118389e-06,0.3,0.0005
203.7074148296593,-0.0003252624999999,1.4482394772044192e-06,0.0001475453666666,1.2632464917382068e-06,0.3,0.0005
207.6553106212425,-0.0003353366333333,1.4702864456364351e-06,0.0001563985,1.308640102039773e-06,0.3,0.0005
211.60320641282567,-0.0003453689666666,1.4628340640308042e-06,0.0001654962333333,1.3417273116728636e-06,0.3,0.0005
215.55110220440883,-0.0003554352333333,1.474154191015611e-06,0.0001748929666666,1.3932158359549149e-06,0.3,0.0005
219.498997995992,-0.0003655014999999,1.4550443693120412e-06,0.0001845112,1.399498705489459e-06,0.3,0.0005
223.4468937875752,-0.0003755458666666,1.4556882847032323e-06,0.0001944055333333,1.4485983048757482e-06,0.3,0.0005
227.3947895791584,-0.0003855912333333,1.4540802747976372e-06,0.0002045342333333,1.4803374994312016e-06,0.3,0.0005
231.3426853707415,-0.0003957061666666,1.478666811316489e-06,0.0002149253,1.5395567576416251e-06,0.3,0.0005
235.29058116232463,-0.0004057991666666,1.4550270806949092e-06,0.0002255995666666,1.552954703853987e-06,0.3,0.0005
239.23847695390785,-0.0004158058333333,1.4526371210854956e-06,0.0002365320333333,1.5969927464526005e-06,0.3,0.0005
243.18637274549096,-0.0004257697999999,1.4485284348837165e-06,0.0002477336999999,1.6370532703611103e-06,0.3,0.0005
247.1342685370741,-0.0004358032333333,1.4701854233017285e-06,0.0002590873333333,1.6732168485352478e-06,0.3,0.0005
251.0821643286573,-0.0004455127666666,1.4103121801769846e-06,0.0002704788333333,1.6478984411128717e-06,0.3,0.0005
255.03006012024048,-0.0004552174,1.427576305024243e-06,0.0002823520333333,1.7399948559949502e-06,0.3,0.0005
258.97795591182364,-0.0004650541999999,1.4324635748713905e-06,0.0002943276,1.7513484823605705e-06,0.3,0.0005
262.9258517034068,-0.0004748909333333,1.4331326045492911e-06,0.0003065783333333,1.7959908376405752e-06,0.3,0.0005
266.87374749499,-0.0004847078,1.43306588357502e-06,0.0003191598333333,1.8430658350211545e-06,0.3,0.0005
270.82164328657313,-0.0004943894333333,1.4076126049291903e-06,0.0003318476999999,1.860650211619578e-06,0.3,0.0005
274.7695390781563,-0.0005050975333333,1.3699048320554474e-06,0.0003461339666666,1.8566591409183205e-06,0.3,0.001
278.71743486973946,-0.0005143025,1.3200215591673797e-06,0.0003587582999999,1.827599703618564e-06,0.3,0.001
282.6653306613226,-0.0005233705,1.3119347989388294e-06,0.0003714917666666,1.867962699187427e-06,0.3,0.001
286.61322645290585,-0.0005324223,1.3326542224698275e-06,0.0003846544999999,1.9476814891899887e-06,0.3,0.001
290.561122244489,-0.0005415118,1.3076118027406605e-06,0.0003980476333333,1.9475858129717653e-06,0.3,0.001
294.5090180360722,-0.0005504725,1.311467466873155e-06,0.0004117130333333,1.993189679606254e-06,0.3,0.001
298.45691382765534,-0.0005594429666666,1.301057300386457e-06,0.0004256723999999,2.0314760905968523e-06,0.3,0.001
302.4048096192385,-0.0005683398666666,1.280671535649252e-06,0.0004397569333333,2.059047837121703e-06,0.3,0.001
306.35270541082167,-0.0005770859,1.2582233598742848e-06,0.0004540342999999,2.086248245855064e-06,0.3,0.001
310.30060120240483,-0.0005856371333333,1.2289090482573934e-06,0.0004684327666666,2.081755856375945e-06,0.3,0.001
314.248496993988,-0.0005941468,1.2359799728690343e-06,0.0004829822999999,2.121652848606481e-06,0.3,0.001
318.1963927855712,-0.0006024914333333,1.192990798604728e-06,0.0004976608,2.119493294791624e-06,0.3,0.001
322.1442885771543,-0.0006107645333333,1.2046179680250811e-06,0.0005125460333333,2.1686159869577834e-06,0.3,0.001
326.0921843687375,-0.0006189939666666,1.1893148583206218e-06,0.0005276697666666,2.1978664303263564e-06,0.3,0.001
330.04008016032066,-0.0006271299999999,1.1802509337707309e-06,0.0005428788333333,2.207952219943976e-06,0.3,0.001
333.9879759519038,-0.0006352263333333,1.19479028378298e-06,0.0005583026,2.293656768859135e-06,0.3,0.001
337.935871743487,-0.0006432550333333,1.1588453300112536e-06,0.0005739746333333,2.279640490418512e-06,0.3,0.001
341.8837675350701,-0.0006511647,1.1333230533847536e-06,0.0005897241333333,2.2725721511587348e-06,0.3,0.001
345.8316633266533,-0.0006588814666666,1.1258792040988352e-06,0.0006056186333333,2.333785486905114e-06,0.3,0.001
349.7795591182365,-0.0006666657333333,1.0769930341258333e-06,0.0006217715,2.3352506753380257e-06,0.3,0.001
353.72745490981964,-0.0006742515,1.093462535556964e-06,0.0006381031666666,2.3696843964732687e-06,0.3,0.001
357.6753507014028,-0.0006816504333333,1.065855264825191e-06,0.0006543474333333,2.356840748167396e-06,0.3,0.001
361.623246492986,-0.0006888427,1.0513235198231452e-06,0.0006706971,2.401538747692132e-06,0.3,0.001
365.57114228456913,-0.0006959277,1.0363027919805412e-06,0.0006871180333333,2.401267685804501e-06,0.3,0.001
369.5190380761523,-0.0007028955,1.0025835875377173e-06,0.0007036941333333,2.410130103449921e-06,0.3,0.001
373.46693386773546,-0.0007097162666666,9.826670488466097e-07,0.0007204608333333,2.4344073759792604e-06,0.3,0.001
377.4148296593186,-0.0007163959,9.744283572091504e-07,0.0007372812666666,2.44967292964228e-06,0.3,0.001
381.3627254509018,-0.0007230299333333,9.527261562951256e-07,0.0007541953333333,2.4529516686818087e-06,0.3,0.001
385.310621242485,-0.0007295685,9.482470405964996e-07,0.0007713097333333,2.4985663080165725e-06,0.3,0.001
389.2585170340682,-0.0007359979,9.422815697373436e-07,0.0007885533666666,2.5368719647541475e-06,0.3,0.001
393.20641282565134,-0.0007423060666666,9.112159251364158e-07,0.0008058763666666,2.526173291539773e-06,0.3,0.001
397.1543086172345,-0.0007485149333333,8.909331038610964e-07,0.0008232907666666,2.5234887184654154e-06,0.3,0.001
401.10220440881767,-0.0007545269666666,8.722619057497654e-07,0.0008408403666666,2.553914413644717e-06,0.3,0.001
405.0501002004008,-0.0007603204666666,8.371849151903174e-07,0.0008583424333333,2.534986123345756e-06,0.3,0.001
408.997995991984,-0.000765987,8.192495753228491e-07,0.0008757907,2.539239625688497e-06,0.3,0.001
412.9458917835672,-0.0007716276,8.17152886551839e-07,0.0008934872,2.572439742086617e-06,0.3,0.001
416.8937875751503,-0.000777145,8.110440596334212e-07,0.0009112831666666,2.600190917135809e-06,0.3,0.001
420.8416833667335,-0.0007826027999999,7.904653650434954e-07,0.0009291785666666,2.6196230731835347e-06,0.3,0.001
424.7895791583167,-0.0007879194666666,7.646409498726938e-07,0.0009471771333333,2.6134859572779173e-06,0.3,0.001
428.7374749498998,-0.0007930515333333,7.396079021271206e-07,0.0009651280333333,2.6166423584858164e-06,0.3,0.001
432.685370741483,-0.0007980046666666,7.147693956017482e-07,0.00098318,2.6279733002195177e-06,0.3,0.001
436.63326653306615,-0.0008031525666666,8.808185088629494e-07,0.0010024246,3.365448564456159e-06,0.3,0.002
440.5811623246493,-0.0008078532999999,6.637634694176346e-07,0.001020558,2.53543737186834e-06,0.3,0.002
444.5290581162325,-0.0008123276,6.433631219355531e-07,0.001038297,2.588858371303205e-06,0.3,0.002
448.4769539078157,-0.0008166827666666,6.317525192316715e-07,0.001056365,2.620009860032331e-06,0.3,0.002
452.4248496993988,-0.0008211292333333,6.310783196684457e-07,0.0010745716666666,2.660910976004683e-06,0.3,0.002
456.372745490982,-0.0008254286666666,5.993170743067198e-07,0.0010929696666666,2.6657750384373327e-06,0.3,0.002
460.32064128256513,-0.0008295692,5.907992552466476e-07,0.0011114353333333,2.6832154011351656e-06,0.3,0.002
464.2685370741483,-0.0008335070666666,5.717054564099331e-07,0.0011299166666666,2.6862294929675844e-06,0.3,0.002
468.21643286573146,-0.0008373734333333,5.736975790625429e-07,0.0011485293333333,2.6958065377339125e-06,0.3,0.002
472.1643286573146,-0.0008411086999999,5.38597199522366e-07,0.0011672653333333,2.695288151983428e-06,0.3,0.002
476.1122244488978,-0.0008446731,5.138217816844099e-07,0.0011859253333333,2.7056850436729446e-06,0.3,0.002
480.06012024048096,-0.0008481500333333,5.082493799526079e-07,0.001204685,2.7246599176166304e-06,0.3,0.002
484.0080160320641,-0.0008515673999999,4.745861776326754e-07,0.001223476,2.716613823616941e-06,0.3,0.002
487.95591182364734,-0.0008548535666666,4.76950080080605e-07,0.0012423236666666,2.731404380330532e-06,0.3,0.002
491.9038076152305,-0.0008580006666666,4.4129010362295547e-07,0.0012611976666666,2.7552116474460072e-06,0.3,0.002
495.85170340681367,-0.0008610404999999,4.41040644385515e-07,0.0012801643333333,2.738399390560524e-06,0.3,0.002
499.7995991983968,-0.0008639650333333,4.1937648029214513e-07,0.0012990506666666,2.728748105308047e-06,0.3,0.002
503.74749498998,-0.0008674658666666,9.307501180350268e-07,0.0013231156666666,6.497787666241139e-06,0.1,0.002
507.6953907815632,-0.0008712527333333,6.941656350532553e-07,0.0013505456666666,5.059439154249747e-06,0.1,0.002
511.6432865731463,-0.0008740342666666,5.473830428096621e-07,0.0013727383333333,4.360204187369612e-06,0.1,0.002
515.5911823647295,-0.0008765296999999,5.322862732277404e-07,0.001392662,4.087937866455415e-06,0.1,0.002
519.5390781563126,-0.0008790410999999,4.878990571829385e-07,0.0014122676666666,4.12811311483695e-06,0.1,0.002
523.4869739478959,-0.0008811988,4.330458328322051e-07,0.001431623,3.997242507862972e-06,0.1,0.002
527.4348697394789,-0.0008830942333333,4.064245467761837e-07,0.0014509913333333,4.058650624147001e-06,0.1,0.002
531.3827655310622,-0.000884767,3.718574995882152e-07,0.001470025,3.982287240602644e-06,0.1,0.002
535.3306613226453,-0.0008865313666666,3.8191853261599893e-07,0.0014889033333333,3.99563623080091e-06,0.1,0.002
539.2785571142285,-0.0008883116,3.773572666143734e-07,0.0015080403333333,4.025645690100198e-06,0.1,0.002
543.2264529058117,-0.0008899487333333,3.324547020105125e-07,0.0015274563333333,4.049968298915688e-06,0.1,0.002
547.1743486973949,-0.0008912401999999,2.8151120759216335e-07,0.0015466606666666,4.013076071488742e-06,0.1,0.002
551.122244488978,-0.0008922415666666,3.207209257629323e-07,0.0015659959999999,4.072051571382648e-06,0.1,0.002
555.0701402805612,-0.0008933821333333,2.942879240169886e-07,0.0015850416666666,4.009915280346403e-06,0.1,0.002
559.0180360721444,-0.0008947846333333,2.743585832851228e-07,0.0016044893333333,4.1033091794577465e-06,0.1,0.002
562.9659318637275,-0.0008959013333333,2.026600327861615e-07,0.0016239483333333,4.046015392402213e-06,0.1,0.002
566.9138276553107,-0.0008967636,1.8887096124073117e-07,0.0016430493333333,4.002729846270207e-06,0.1,0.002
570.8617234468938,-0.0008976774666666,1.760429366818153e-07,0.0016623606666666,4.056286424250075e-06,0.1,0.002
574.809619238477,-0.0008985041333333,1.6891353475143546e-07,0.0016819153333333,4.070218448956052e-06,0.1,0.002
578.7575150300602,-0.0008989768666666,9.080115026194945e-08,0.001701363,4.0337370183656415e-06,0.1,0.002
582.7054108216433,-0.0008995728666666,1.432400626764505e-07,0.0017208453333333,4.099883521380693e-06,0.1,0.002
586.6533066132265,-0.0009000697,8.215885020291889e-08,0.0017401176666666,4.01248608166503e-06,0.1,0.002
590.6012024048097,-0.0009003632666666,6.656722583638668e-08,0.0017593099999999,4.062018381707928e-06,0.1,0.002
594.5490981963928,-0.0009005467,5.4532650769988495e-08,0.0017788646666666,4.084585440680876e-06,0.1,0.002
598.496993987976,-0.0009005546333333,5.7345434769391883e-08,0.0017981963333333,4.006059979026225e-06,0.1,0.002
602.4448897795592,-0.0009005109999999,1.0842021724855044e-19,0.0018173973333333,4.02166460837078e-06,0.1,0.002
606.3927855711423,-0.000900503,2.9933259094203074e-08,0.0018367516666666,4.066499791658113e-06,0.1,0.002
610.3406813627255,-0.0009002006,7.271020102663239e-08,0.0018561756666666,4.0781014237292375e-06,0.1,0.002
614.2885771543087,-0.0009000062333333,5.0331357577083495e-08,0.0018756743333333,4.034580261797859e-06,0.1,0.002
618.2364729458918,-0.0008995926999999,1.2347743383575528e-07,0.0018949226666666,4.044118307973811e-06,0.1,0.002
622.184368737475,-0.0008989689333333,1.1049854699902237e-07,0.0019140003333333,4.028432683921754e-06,0.1,0.002
626.1322645290581,-0.0008983768999999,1.0351404091553373e-07,0.001933264,4.020934054006191e-06,0.1,0.002
630.0801603206413,-0.0008977132666666,1.2597828737082478e-07,0.0019524046666666,4.010753655971534e-06,0.1,0.002
634.0280561122245,-0.0008968032999999,1.667587379019997e-07,0.0019716606666666,4.062851981333084e-06,0.1,0.002
637.9759519038076,-0.0008958417333333,1.7173932442966218e-07,0.0019909416666666,4.046921532336516e-06,0.1,0.002
641.9238476953908,-0.0008947728666666,1.62175159078737e-07,0.0020138653333333,3.7463588841552656e-06,0.1,0.005
645.871743486974,-0.0008939541333333,1.8203749308557242e-07,0.0020311903333333,3.714557383532492e-06,0.1,0.005
649.8196392785571,-0.0008921899,5.342975669044307e-07,0.002049756,4.06829743258778e-06,0.1,0.005
653.7675350701403,-0.0008905209,7.170000000002304e-08,0.0020688683333333,3.95276197388895e-06,0.1,0.005
657.7154308617235,-0.0008898613333333,1.1219427594829434e-07,0.0020878946666666,4.018360970456601e-06,0.1,0.005
661.6633266533066,-0.0008889712666666,2.4315796420340934e-07,0.002106928,3.96653870942077e-06,0.1,0.005
665.6112224448898,-0.0008875089666666,3.063249345965216e-07,0.002126097,4.06156960628113e-06,0.1,0.005
669.559118236473,-0.0008860068666666,3.432545929125448e-07,0.0021452653333333,4.003701398567174e-06,0.1,0.005
673.5070140280561,-0.0008846318333333,3.45933334939288e-07,0.0021644666666666,4.050157472933088e-06,0.1,0.005
677.4549098196393,-0.0008828518333333,4.263914542087241e-07,0.0021835553333333,4.017183701162913e-06,0.1,0.005
681.4028056112224,-0.000880881,4.189608573602176e-07,0.0022027793333333,4.046397519879773e-06,0.1,0.005
685.3507014028056,-0.0008789258999999,3.927720585785098e-07,0.0022219566666666,3.971751362924056e-06,0.1,0.005
689.2985971943888,-0.0008771220333333,3.66113414425421e-07,0.0022410623333333,3.995326172194452e-06,0.1,0.005
693.2464929859719,-0.0008750952999999,4.7531043539984966e-07,0.0022603266666666,3.980677775901415e-06,0.1,0.005
697.1943887775551,-0.0008726634666666,4.744650133454463e-07,0.0022794079999999,3.9596257398901084e-06,0.1,0.005
701.1422845691383,-0.0008706686333333,4.609861518768434e-07,0.002298481,3.965155188219836e-06,0.1,0.005
705.0901803607214,-0.0008684353666666,4.513164066249837e-07,0.0023173723333333,3.960261509322634e-06,0.1,0.005
709.0380761523046,-0.0008660114666666,5.118212404953805e-07,0.0023364056666666,3.999051290271502e-06,0.1,0.005
712.9859719438878,-0.0008634525,5.389819261038966e-07,0.002355622,4.019037529890301e-06,0.1,0.005
716.9338677354709,-0.0008605994666666,5.793866718829043e-07,0.0023746403333333,3.978485878935478e-06,0.1,0.005
720.8817635270541,-0.000858104,5.24881954982884e-07,0.0023938086666666,3.983708266873419e-06,0.1,0.005
724.8296593186373,-0.0008556324333333,5.597557016731157e-07,0.0024126443333333,3.929105651700195e-06,0.1,0.005
728.7775551102204,-0.000852676,6.201811563298847e-07,0.0024314866666666,3.979483495240178e-06,0.1,0.005
732.7254509018036,-0.0008497830999999,5.797271398396608e-07,0.0024503696666666,3.981263185919207e-06,0.1,0.005
736.6733466933867,-0.0008469698,6.207692754424499e-07,0.0024693166666666,3.9187594408888526e-06,0.1,0.005
740.62124248497,-0.0008438066666666,6.546308544176433e-07,0.0024882306666666,3.972580129951957e-06,0.1,0.005
744.5691382765532,-0.0008407867666666,6.41967428214926e-07,0.0025072966666666,3.978758879628457e-06,0.1,0.005
