Frecuencia [Hz],Error Frecuencia [Hz],X [V],Ruido X [V],Y [V],Ruido Y [V],Tiempo de integración [s],Escala [V]
100.0,,0.0117875,5e-06,-0.0326464,5e-06,,0.01
119.83967935871743,,0.0203935,5e-06,-0.0327532,5e-06,,0.01
139.67935871743487,,0.0517046,5e-06,-0.0307084,5e-06,,0.01
159.5190380761523,,0.0922627,5e-06,-0.0277711,5e-06,,0.01
179.35871743486973,,0.126519,5e-06,-0.025757,5e-06,,0.01
199.1983967935872,,0.149362,5e-06,-0.0252305,5e-06,,0.01
219.03807615230463,,0.162263,5e-06,-0.0259248,5e-06,,0.01
238.8777555110221,,0.168489,5e-06,-0.027382,5e-06,,0.01
258.71743486973946,,0.1708,5e-06,-0.0292131,5e-06,,0.01
278.5571142284569,,0.171006,5e-06,-0.0311815,5e-06,,0.01
298.3967935871744,,0.170144,5e-06,-0.0331347,5e-06,,0.01
318.2364729458918,,0.168763,5e-06,-0.0350115,5e-06,,0.01
338.07615230460925,,0.167115,5e-06,-0.0367739,5e-06,,0.01
357.9158316633267,,0.16536,5e-06,-0.0384142,5e-06,,0.01
377.7555110220441,,0.163583,5e-06,-0.0399096,5e-06,,0.01
397.5951903807616,,0.161798,5e-06,-0.04126,5e-06,,0.01
417.434869739479,,0.160035,5e-06,-0.0424883,5e-06,,0.01
437.2745490981964,,0.158296,5e-06,-0.0435946,5e-06,,0.01
457.11422845691385,,0.156594,5e-06,-0.0445864,5e-06,,0.01
476.9539078156313,,0.154939,5e-06,-0.0454867,5e-06,,0.01
496.7935871743487,,0.153321,5e-06,-0.0463107,5e-06,,0.01
516.6332665330661,,0.15175,5e-06,-0.0470355,5e-06,,0.01
536.4729458917836,,0.150231,5e-06,-0.0476916,5e-06,,0.01
556.312625250501,,0.148774,5e-06,-0.0482714,5e-06,,0.01
576.1523046092185,,0.14737,5e-06,-0.0487902,5e-06,,0.01
595.991983967936,,0.146005,5e-06,-0.0492556,5e-06,,0.01
615.8316633266534,,0.144685,5e-06,-0.0496905,5e-06,,0.01
635.6713426853707,,0.143403,5e-06,-0.0500948,5e-06,,0.01
655.5110220440882,,0.142167,5e-06,-0.0504763,5e-06,,0.01
675.3507014028056,,0.140969,5e-06,-0.050812,5e-06,,0.01
695.1903807615231,,0.13984,5e-06,-0.0511248,5e-06,,0.01
715.0300601202405,,0.138757,5e-06,-0.0513995,5e-06,,0.01
734.869739478958,,0.137704,5e-06,-0.0516589,5e-06,,0.01
754.7094188376755,,0.136704,5e-06,-0.051903,5e-06,,0.01
774.5490981963928,,0.135736,5e-06,-0.0521243,5e-06,,0.01
794.3887775551103,,0.134797,5e-06,-0.0523455,5e-06,,0.01
814.2284569138277,,0.133889,5e-06,-0.0525591,5e-06,,0.01
834.0681362725452,,0.132989,5e-06,-0.0527651,5e-06,,0.01
853.9078156312626,,0.132142,5e-06,-0.0529711,5e-06,,0.01
873.74749498998,,0.131303,5e-06,-0.0531619,5e-06,,0.01
893.5871743486974,,0.130502,5e-06,-0.0533526,5e-06,,0.01
913.4268537074148,,0.129739,5e-06,-0.0535357,5e-06,,0.01
933.2665330661324,,0.129006,5e-06,-0.0537188,5e-06,,0.01
953.1062124248498,,0.128282,5e-06,-0.0538943,5e-06,,0.01
972.9458917835672,,0.127564,5e-06,-0.0540774,5e-06,,0.01
992.7855711422848,,0.126863,5e-06,-0.0542529,5e-06,,0.01
1012.625250501002,,0.126176,5e-06,-0.0544436,5e-06,,0.01
1032.4649298597196,,0.125497,5e-06,-0.0546267,5e-06,,0.01
1052.304609218437,,0.124825,5e-06,-0.0548174,5e-06,,0.01
1072.1442885771544,,0.124169,5e-06,-0.0550005,5e-06,,0.01
1091.983967935872,,0.123543,5e-06,-0.0551913,5e-06,,0.01
1111.8236472945891,,0.122948,5e-06,-0.0553744,5e-06,,0.01
1131.6633266533067,,0.122368,5e-06,-0.0555575,5e-06,,0.01
1151.503006012024,,0.121796,5e-06,-0.0557406,5e-06,,0.01
1171.3426853707415,,0.121216,5e-06,-0.055939,5e-06,,0.01
1191.182364729459,,0.120636,5e-06,-0.0561297,5e-06,,0.01
1211.0220440881765,,0.120064,5e-06,-0.0563204,5e-06,,0.01
1230.8617234468938,,0.119507,5e-06,-0.0565188,5e-06,,0.01
1250.7014028056112,,0.11895,5e-06,-0.0567172,5e-06,,0.01
1270.5410821643288,,0.118401,5e-06,-0.0569079,5e-06,,0.01
1290.3807615230462,,0.117859,5e-06,-0.0570986,5e-06,,0.01
1310.2204408817636,,0.117325,5e-06,-0.0573046,5e-06,,0.01
1330.060120240481,,0.116807,5e-06,-0.057503,5e-06,,0.01
1349.8997995991986,,0.116295,5e-06,-0.0577013,5e-06,,0.01
1369.739478957916,,0.115792,5e-06,-0.0579073,5e-06,,0.01
1389.5791583166333,,0.115288,5e-06,-0.0581057,5e-06,,0.01
1409.418837675351,,0.114792,5e-06,-0.0583117,5e-06,,0.01
1429.2585170340683,,0.114319,5e-06,-0.0585253,5e-06,,0.01
1449.0981963927857,,0.113854,5e-06,-0.0587313,5e-06,,0.01
1468.937875751503,,0.113381,5e-06,-0.0589449,5e-06,,0.01
1488.7775551102206,,0.112916,5e-06,-0.0591586,5e-06,,0.01
1508.617234468938,,0.112442,5e-06,-0.0593722,5e-06,,0.01
1528.4569138276554,,0.111962,5e-06,-0.0595782,5e-06,,0.01
1548.2965931863728,,0.111474,5e-06,-0.0597765,5e-06,,0.01
1568.1362725450904,,0.11097,5e-06,-0.0599749,5e-06,,0.01
1587.9759519038078,,0.110482,5e-06,-0.0601733,5e-06,,0.01
1607.8156312625251,,0.110016,5e-06,-0.0603869,5e-06,,0.01
1627.6553106212425,,0.109589,5e-06,-0.0606081,5e-06,,0.01
1647.49498997996,,0.109185,5e-06,-0.060837,5e-06,,0.01
1667.3346693386777,,0.108773,5e-06,-0.0610583,5e-06,,0.01
1687.1743486973949,,0.108346,5e-06,-0.0612719,5e-06,,0.01
1707.0140280561125,,0.107918,5e-06,-0.0614932,5e-06,,0.01
1726.8537074148298,,0.107483,5e-06,-0.0617068,5e-06,,0.01
1746.6933867735472,,0.107033,5e-06,-0.0619204,5e-06,,0.01
1766.5330661322646,,0.106575,5e-06,-0.0621188,5e-06,,0.01
1786.3727454909822,,0.106118,5e-06,-0.0623248,5e-06,,0.01
1806.2124248497,,0.105652,5e-06,-0.0625234,5e-06,,0.01
1826.052104208417,,0.105179,5e-06,-0.0627141,5e-06,,0.01
1845.8917835671343,,0.104706,5e-06,-0.0629048,5e-06,,0.01
1865.731462925852,,0.104241,5e-06,-0.0631032,5e-06,,0.01
1885.5711422845693,,0.103768,5e-06,-0.0632863,5e-06,,0.01
1905.410821643287,,0.103287,5e-06,-0.0634694,5e-06,,0.01
1925.250501002004,,0.102807,5e-06,-0.0636449,5e-06,,0.01
1945.0901803607217,,0.102334,5e-06,-0.063828,5e-06,,0.01
1964.929859719439,,0.101861,5e-06,-0.0640111,5e-06,,0.01
1984.7695390781564,,0.101388,5e-06,-0.0641789,5e-06,,0.01
2004.609218436874,,0.100914,5e-06,-0.0643468,5e-06,,0.01
2024.448897795592,,0.100449,5e-06,-0.0645146,5e-06,,0.01
2044.2885771543088,,0.0999761,5e-06,-0.0646825,5e-06,,0.01
2064.128256513026,,0.099503,5e-06,-0.0648427,5e-06,,0.01
2083.967935871744,,0.0990376,5e-06,-0.0650105,5e-06,,0.01
2103.807615230461,,0.0985799,5e-06,-0.0651708,5e-06,,0.01
2123.6472945891783,,0.0981297,5e-06,-0.065331,5e-06,,0.01
2143.486973947896,,0.097672,5e-06,-0.0654912,5e-06,,0.01
2163.326653306613,,0.0972142,5e-06,-0.0656438,5e-06,,0.01
2183.16633266533,,0.0967565,5e-06,-0.0657964,5e-06,,0.01
2203.006012024048,,0.0962834,5e-06,-0.0659337,5e-06,,0.01
2222.845691382766,,0.095818,5e-06,-0.0660787,5e-06,,0.01
2242.685370741483,,0.0953526,5e-06,-0.066216,5e-06,,0.01
2262.5250501002006,,0.0948873,5e-06,-0.0663457,5e-06,,0.01
2282.364729458918,,0.0944295,5e-06,-0.0664754,5e-06,,0.01
2302.204408817636,,0.0939641,5e-06,-0.0666051,5e-06,,0.01
2322.044088176353,,0.0935063,5e-06,-0.0667272,5e-06,,0.01
2341.8837675350705,,0.0930409,5e-06,-0.0668569,5e-06,,0.01
2361.723446893788,,0.0925832,5e-06,-0.0669713,5e-06,,0.01
2381.5631262525053,,0.0921178,5e-06,-0.0670857,5e-06,,0.01
2401.4028056112224,,0.09166,5e-06,-0.0672002,5e-06,,0.01
2421.24248496994,,0.0912099,5e-06,-0.0673146,5e-06,,0.01
2441.0821643286577,,0.0907598,5e-06,-0.0674214,5e-06,,0.01
2460.921843687375,,0.0903096,5e-06,-0.0675282,5e-06,,0.01
2480.7615230460924,,0.0898595,5e-06,-0.0676351,5e-06,,0.01
2500.60120240481,,0.0894094,5e-06,-0.0677342,5e-06,,0.01
2520.440881763527,,0.0889592,5e-06,-0.0678334,5e-06,,0.01
2540.2805611222448,,0.0885167,5e-06,-0.0679326,5e-06,,0.01
2560.120240480962,,0.0880818,5e-06,-0.0680318,5e-06,,0.01
2579.9599198396795,,0.0876393,5e-06,-0.068131,5e-06,,0.01
2599.799599198397,,0.0871968,5e-06,-0.0682149,5e-06,,0.01
2619.6392785571143,,0.0867543,5e-06,-0.0682912,5e-06,,0.01
2639.478957915832,,0.0863194,5e-06,-0.0683751,5e-06,,0.01
2659.318637274549,,0.0858769,5e-06,-0.0684514,5e-06,,0.01
2679.1583166332666,,0.0854497,5e-06,-0.0685353,5e-06,,0.01
2698.997995991984,,0.0849996,5e-06,-0.0686116,5e-06,,0.01
2718.837675350702,,0.0845647,5e-06,-0.0686727,5e-06,,0.01
2738.677354709419,,0.0841374,5e-06,-0.0687413,5e-06,,0.01
2758.5170340681366,,0.0837102,5e-06,-0.06881,5e-06,,0.01
2778.3567134268537,,0.0832829,5e-06,-0.0688787,5e-06,,0.01
2798.196392785572,,0.0828557,5e-06,-0.0689397,5e-06,,0.01
2818.036072144289,,0.0824361,5e-06,-0.0690007,5e-06,,0.01
2837.875751503006,,0.0820088,5e-06,-0.0690618,5e-06,,0.01
2857.715430861724,,0.0815892,5e-06,-0.0691152,5e-06,,0.01
2877.5551102204413,,0.0811696,5e-06,-0.0691609,5e-06,,0.01
2897.3947895791584,,0.08075,5e-06,-0.0692067,5e-06,,0.01
2917.234468937876,,0.0803304,5e-06,-0.0692525,5e-06,,0.01
2937.074148296593,,0.0799031,5e-06,-0.0692983,5e-06,,0.01
2956.913827655311,,0.0794835,5e-06,-0.0693364,5e-06,,0.01
2976.7535070140284,,0.0790715,5e-06,-0.0693746,5e-06,,0.01
2996.593186372745,,0.0786672,5e-06,-0.0694127,5e-06,,0.01
3016.432865731463,,0.0782628,5e-06,-0.0694585,5e-06,,0.01
3036.2725450901808,,0.0778508,5e-06,-0.0694966,5e-06,,0.01
3056.112224448898,,0.0774541,5e-06,-0.0695348,5e-06,,0.01
3075.9519038076155,,0.0770497,5e-06,-0.0695653,5e-06,,0.01
3095.791583166333,,0.0766454,5e-06,-0.0695882,5e-06,,0.01
3115.6312625250503,,0.076241,5e-06,-0.0696111,5e-06,,0.01
3135.470941883768,,0.0758443,5e-06,-0.0696263,5e-06,,0.01
3155.310621242485,,0.0754552,5e-06,-0.0696492,5e-06,,0.01
3175.1503006012026,,0.0750508,5e-06,-0.0696721,5e-06,,0.01
3194.98997995992,,0.0746617,5e-06,-0.069695,5e-06,,0.01
3214.8296593186374,,0.0742726,5e-06,-0.0697179,5e-06,,0.01
3234.669338677355,,0.0738835,5e-06,-0.0697255,5e-06,,0.01
3254.5090180360726,,0.0735021,5e-06,-0.0697408,5e-06,,0.01
3274.3486973947897,,0.073113,5e-06,-0.069756,5e-06,,0.01
3294.188376753508,,0.0727315,5e-06,-0.0697713,5e-06,,0.01
3314.028056112225,,0.07235,5e-06,-0.0697713,5e-06,,0.01
3333.867735470942,,0.0719609,5e-06,-0.0697713,5e-06,,0.01
3353.70741482966,,0.0715795,5e-06,-0.0697713,5e-06,,0.01
3373.547094188377,,0.071198,5e-06,-0.0697713,5e-06,,0.01
3393.3867735470944,,0.0708241,5e-06,-0.0697713,5e-06,,0.01
3413.226452905812,,0.0704503,5e-06,-0.0697713,5e-06,,0.01
3433.066132264529,,0.0700841,5e-06,-0.0697713,5e-06,,0.01
3452.905811623247,,0.0697103,5e-06,-0.069756,5e-06,,0.01
3472.7454909819644,,0.069344,5e-06,-0.0697484,5e-06,,0.01
3492.585170340681,,0.0689702,5e-06,-0.0697331,5e-06,,0.01
3512.424849699399,,0.0686116,5e-06,-0.0697179,5e-06,,0.01
3532.2645290581163,,0.0682454,5e-06,-0.0697026,5e-06,,0.01
3552.104208416834,,0.0678868,5e-06,-0.0696874,5e-06,,0.01
3571.9438877755515,,0.0675282,5e-06,-0.0696721,5e-06,,0.01
3591.7835671342687,,0.0671773,5e-06,-0.0696568,5e-06,,0.01
3611.623246492986,,0.0668187,5e-06,-0.069634,5e-06,,0.01
3631.462925851704,,0.0664678,5e-06,-0.0696187,5e-06,,0.01
3651.302605210421,,0.0661168,5e-06,-0.0695882,5e-06,,0.01
3671.1422845691386,,0.0657582,5e-06,-0.0695653,5e-06,,0.01
3690.981963927856,,0.0654149,5e-06,-0.0695348,5e-06,,0.01
3710.821643286573,,0.065064,5e-06,-0.0695119,5e-06,,0.01
3730.661322645291,,0.0647206,5e-06,-0.0694814,5e-06,,0.01
3750.501002004008,,0.0643773,5e-06,-0.0694509,5e-06,,0.01
3770.3406813627257,,0.0640416,5e-06,-0.0694127,5e-06,,0.01
3790.1803607214433,,0.0636983,5e-06,-0.0693822,5e-06,,0.01
3810.020040080161,,0.0633626,5e-06,-0.069344,5e-06,,0.01
3829.859719438878,,0.0630116,5e-06,-0.0692983,5e-06,,0.01
3849.699398797596,,0.0626836,5e-06,-0.0692677,5e-06,,0.01
3869.539078156313,,0.0623553,5e-06,-0.0692296,5e-06,,0.01
3889.3787575150304,,0.0620272,5e-06,-0.0691915,5e-06,,0.01
3909.218436873748,,0.0616915,5e-06,-0.0691381,5e-06,,0.01
3929.058116232465,,0.0613635,5e-06,-0.0690999,5e-06,,0.01
3948.897795591183,,0.061043,5e-06,-0.0690541,5e-06,,0.01
3968.7374749499,,0.060715,5e-06,-0.0690084,5e-06,,0.01
3988.5771543086175,,0.0604022,5e-06,-0.0689702,5e-06,,0.01
4008.416833667335,,0.0600817,5e-06,-0.0689244,5e-06,,0.01
4028.256513026052,,0.0597613,5e-06,-0.0688787,5e-06,,0.01
4048.09619238477,,0.0594485,5e-06,-0.0688329,5e-06,,0.01
4067.935871743488,,0.0591357,5e-06,-0.0687795,5e-06,,0.01
4087.7755511022046,,0.0588229,5e-06,-0.0687261,5e-06,,0.01
4107.615230460922,,0.0585177,5e-06,-0.0686727,5e-06,,0.01
4127.454909819639,,0.0581973,5e-06,-0.0686116,5e-06,,0.01
4147.294589178357,,0.0578921,5e-06,-0.0685582,5e-06,,0.01
4167.134268537075,,0.0575869,5e-06,-0.0685048,5e-06,,0.01
4186.973947895792,,0.0572817,5e-06,-0.0684514,5e-06,,0.01
4206.813627254509,,0.0569842,5e-06,-0.068398,5e-06,,0.01
4226.653306613227,,0.0566866,5e-06,-0.0683446,5e-06,,0.01
4246.492985971944,,0.0563891,5e-06,-0.0682836,5e-06,,0.01
4266.332665330661,,0.0560915,5e-06,-0.0682225,5e-06,,0.01
4286.172344689379,,0.055794,5e-06,-0.0681539,5e-06,,0.01
4306.0120240480965,,0.0555041,5e-06,-0.0680852,5e-06,,0.01
4325.851703406814,,0.0552065,5e-06,-0.0680242,5e-06,,0.01
4345.691382765532,,0.0549166,5e-06,-0.0679555,5e-06,,0.01
4365.531062124249,,0.0546267,5e-06,-0.0678868,5e-06,,0.01
4385.370741482966,,0.0543444,5e-06,-0.0678182,5e-06,,0.01
4405.210420841684,,0.0540545,5e-06,-0.0677495,5e-06,,0.01
4425.050100200401,,0.0537722,5e-06,-0.0676808,5e-06,,0.01
4444.889779559118,,0.0534899,5e-06,-0.0676045,5e-06,,0.01
4464.729458917836,,0.0532076,5e-06,-0.0675359,5e-06,,0.01
4484.5691382765535,,0.052933,5e-06,-0.0674596,5e-06,,0.01
4504.408817635271,,0.0526507,5e-06,-0.0673985,5e-06,,0.01
4524.248496993989,,0.0523837,5e-06,-0.0673223,5e-06,,0.01
4544.088176352706,,0.052109,5e-06,-0.067246,5e-06,,0.01
4563.927855711423,,0.0518343,5e-06,-0.0671773,5e-06,,0.01
4583.767535070141,,0.0515597,5e-06,-0.067101,5e-06,,0.01
4603.607214428858,,0.0512927,5e-06,-0.0670247,5e-06,,0.01
4623.446893787575,,0.0510256,5e-06,-0.0669484,5e-06,,0.01
4643.2865731462925,,0.0507662,5e-06,-0.0668721,5e-06,,0.01
4663.126252505011,,0.0504992,5e-06,-0.0667958,5e-06,,0.01
4682.965931863728,,0.0502322,5e-06,-0.0667195,5e-06,,0.01
4702.805611222445,,0.0499804,5e-06,-0.0666432,5e-06,,0.01
4722.645290581163,,0.049721,5e-06,-0.0665593,5e-06,,0.01
4742.48496993988,,0.0494616,5e-06,-0.066483,5e-06,,0.01
4762.324649298597,,0.0492098,5e-06,-0.0663991,5e-06,,0.01
4782.164328657315,,0.0489581,5e-06,-0.0663228,5e-06,,0.01
4802.0040080160325,,0.048691,5e-06,-0.0662313,5e-06,,0.01
4821.84368737475,,0.0484393,5e-06,-0.066155,5e-06,,0.01
4841.683366733468,,0.0481951,5e-06,-0.0660787,5e-06,,0.01
4861.523046092185,,0.047951,5e-06,-0.0659947,5e-06,,0.01
4881.362725450902,,0.0476992,5e-06,-0.0659108,5e-06,,0.01
4901.20240480962,,0.0474551,5e-06,-0.0658193,5e-06,,0.01
4921.042084168337,,0.0472109,5e-06,-0.0657353,5e-06,,0.01
4940.881763527054,,0.0469668,5e-06,-0.0656514,5e-06,,0.01
4960.721442885772,,0.0467303,5e-06,-0.0655599,5e-06,,0.01
4980.5611222444895,,0.0464861,5e-06,-0.0654759,5e-06,,0.01
5000.400801603207,,0.0462496,5e-06,-0.065392,5e-06,,0.01
5020.240480961924,,0.0460131,5e-06,-0.0653005,5e-06,,0.01
5040.080160320642,,0.0457842,5e-06,-0.0652165,5e-06,,0.01
5059.919839679359,,0.0455477,5e-06,-0.065125,5e-06,,0.01
5079.759519038076,,0.0453112,5e-06,-0.0650334,5e-06,,0.01
5099.599198396794,,0.0450823,5e-06,-0.0649495,5e-06,,0.01
5119.438877755511,,0.0448534,5e-06,-0.064858,5e-06,,0.01
5139.2785571142285,,0.0446246,5e-06,-0.0647664,5e-06,,0.01
5159.118236472947,,0.0444033,5e-06,-0.0646825,5e-06,,0.01
5178.957915831664,,0.0441744,5e-06,-0.0645909,5e-06,,0.01
5198.797595190381,,0.0439456,5e-06,-0.0644994,5e-06,,0.01
5218.637274549099,,0.0437243,5e-06,-0.0644078,5e-06,,0.01
5238.476953907816,,0.0435107,5e-06,-0.0643239,5e-06,,0.01
5258.316633266533,,0.0432818,5e-06,-0.0642247,5e-06,,0.01
5278.156312625251,,0.0430682,5e-06,-0.0641408,5e-06,,0.01
5297.995991983968,,0.0428469,5e-06,-0.0640569,5e-06,,0.01
5317.835671342686,,0.0426333,5e-06,-0.0639653,5e-06,,0.01
5337.675350701404,,0.0424197,5e-06,-0.0638661,5e-06,,0.01
5357.515030060121,,0.042206,5e-06,-0.0637822,5e-06,,0.01
5377.354709418838,,0.0419924,5e-06,-0.0636907,5e-06,,0.01
5397.194388777555,,0.0417864,5e-06,-0.0635915,5e-06,,0.01
5417.034068136273,,0.0415728,5e-06,-0.0634999,5e-06,,0.01
5436.87374749499,,0.0413668,5e-06,-0.0634084,5e-06,,0.01
5456.713426853708,,0.0411608,5e-06,-0.0633168,5e-06,,0.01
5476.5531062124255,,0.0409548,5e-06,-0.0632253,5e-06,,0.01
5496.392785571143,,0.0407565,5e-06,-0.0631261,5e-06,,0.01
5516.23246492986,,0.0405581,5e-06,-0.0630345,5e-06,,0.01
5536.072144288578,,0.0403445,5e-06,-0.062943,5e-06,,0.01
5555.911823647295,,0.0401461,5e-06,-0.0628514,5e-06,,0.01
5575.751503006012,,0.0399477,5e-06,-0.0627522,5e-06,,0.01
5595.59118236473,,0.039757,5e-06,-0.0626531,5e-06,,0.01
5615.430861723447,,0.0395586,5e-06,-0.0625615,5e-06,,0.01
5635.2705410821645,,0.0393603,5e-06,-0.0624697,5e-06,,0.01
5655.110220440883,,0.0391695,5e-06,-0.0623705,5e-06,,0.01
5674.9498997996,,0.0389712,5e-06,-0.0622714,5e-06,,0.01
5694.789579158317,,0.0387805,5e-06,-0.0621798,5e-06,,0.01
5714.629258517035,,0.0385973,5e-06,-0.0620883,5e-06,,0.01
5734.468937875752,,0.0384066,5e-06,-0.0619967,5e-06,,0.01
5754.308617234469,,0.0382159,5e-06,-0.0619051,5e-06,,0.01
5774.148296593186,,0.0380251,5e-06,-0.061806,5e-06,,0.01
5793.987975951904,,0.037842,5e-06,-0.0617068,5e-06,,0.01
5813.827655310622,,0.0376513,5e-06,-0.0616152,5e-06,,0.01
5833.667334669339,,0.0374758,5e-06,-0.0615237,5e-06,,0.01
5853.507014028057,,0.0372927,5e-06,-0.0614321,5e-06,,0.01
5873.346693386774,,0.0371096,5e-06,-0.0613253,5e-06,,0.01
5893.186372745491,,0.0369265,5e-06,-0.0612338,5e-06,,0.01
5913.026052104209,,0.036751,5e-06,-0.0611346,5e-06,,0.01
5932.865731462926,,0.0365679,5e-06,-0.061043,5e-06,,0.01
5952.705410821643,,0.0363848,5e-06,-0.0609438,5e-06,,0.01
5972.5450901803615,,0.036217,5e-06,-0.0608447,5e-06,,0.01
5992.384769539079,,0.0360415,5e-06,-0.0607455,5e-06,,0.01
6012.224448897796,,0.0358737,5e-06,-0.0606463,5e-06,,0.01
6032.064128256514,,0.0356982,5e-06,-0.0605471,5e-06,,0.01
6051.903807615231,,0.0355303,5e-06,-0.0604556,5e-06,,0.01
6071.743486973948,,0.0353549,5e-06,-0.060364,5e-06,,0.01
6091.583166332666,,0.0351794,5e-06,-0.0602648,5e-06,,0.01
6111.422845691383,,0.0350115,5e-06,-0.0601733,5e-06,,0.01
6131.2625250501005,,0.0348437,5e-06,-0.0600817,5e-06,,0.01
6151.102204408819,,0.0346758,5e-06,-0.0599902,5e-06,,0.01
6170.941883767536,,0.034508,5e-06,-0.059891,5e-06,,0.01
6190.781563126253,,0.0343478,5e-06,-0.0597918,5e-06,,0.01
6210.62124248497,,0.0341799,5e-06,-0.0597003,5e-06,,0.01
6230.460921843688,,0.0340197,5e-06,-0.0596087,5e-06,,0.01
6250.300601202405,,0.0338519,5e-06,-0.0595171,5e-06,,0.01
6270.140280561122,,0.0336916,5e-06,-0.059418,5e-06,,0.01
6289.97995991984,,0.0335314,5e-06,-0.0593188,5e-06,,0.01
6309.819639278558,,0.0333788,5e-06,-0.0592272,5e-06,,0.01
6329.659318637275,,0.0332186,5e-06,-0.059128,5e-06,,0.01
6349.498997995993,,0.033066,5e-06,-0.0590289,5e-06,,0.01
6369.33867735471,,0.0329058,5e-06,-0.0589297,5e-06,,0.01
6389.178356713427,,0.0327532,5e-06,-0.0588305,5e-06,,0.01
6409.018036072145,,0.0326006,5e-06,-0.0587313,5e-06,,0.01
6428.857715430862,,0.0324481,5e-06,-0.0586321,5e-06,,0.01
6448.697394789579,,0.0322955,5e-06,-0.058533,5e-06,,0.01
6468.5370741482975,,0.0321505,5e-06,-0.0584338,5e-06,,0.01
6488.376753507015,,0.0319979,5e-06,-0.0583422,5e-06,,0.01
6508.216432865732,,0.0318453,5e-06,-0.058243,5e-06,,0.01
6528.05611222445,,0.0317004,5e-06,-0.0581515,5e-06,,0.01
6547.895791583167,,0.0315478,5e-06,-0.0580523,5e-06,,0.01
6567.735470941884,,0.0314028,5e-06,-0.0579607,5e-06,,0.01
6587.575150300601,,0.0312579,5e-06,-0.0578616,5e-06,,0.01
6607.414829659319,,0.0311128,5e-06,-0.05777,5e-06,,0.01
6627.2545090180365,,0.0309678,5e-06,-0.0576708,5e-06,,0.01
6647.094188376754,,0.0308305,5e-06,-0.0575716,5e-06,,0.01
6666.933867735472,,0.0306855,5e-06,-0.0574725,5e-06,,0.01
6686.773547094189,,0.0305406,5e-06,-0.0573809,5e-06,,0.01
6706.613226452906,,0.0304033,5e-06,-0.0572817,5e-06,,0.01
6726.452905811624,,0.0302583,5e-06,-0.0571902,5e-06,,0.01
6746.292585170341,,0.030121,5e-06,-0.0570986,5e-06,,0.01
6766.132264529058,,0.0299913,5e-06,-0.0569918,5e-06,,0.01
6785.971943887776,,0.0298463,5e-06,-0.0568926,5e-06,,0.01
6805.811623246494,,0.029709,5e-06,-0.0568011,5e-06,,0.01
6825.651302605211,,0.0295717,5e-06,-0.0567095,5e-06,,0.01
6845.490981963929,,0.029442,5e-06,-0.0566103,5e-06,,0.01
6865.330661322646,,0.0293123,5e-06,-0.0565188,5e-06,,0.01
6885.170340681363,,0.0291749,5e-06,-0.0564196,5e-06,,0.01
6905.010020040081,,0.0290452,5e-06,-0.0563281,5e-06,,0.01
6924.849699398798,,0.0289079,5e-06,-0.0562289,5e-06,,0.01
